string
20201020_m3.5_degree/TG_20201020_026back: 20201020_m3.5_degree/dark/TG_20201020_091.tif integrated counts_backsubbed
px integrated counts
0.0 270213.5546875
1.0 416861.6640625
2.0 536422.296875
3.0 540086.5078125
4.0 540400.2265625
5.0 544922.53125
6.0 550087.796875
7.0 556193.296875
8.0 562533.1875
9.0 566518.375
10.0 569308.0
11.0 574205.2265625
12.0 579472.109375
13.0 585649.5
14.0 591818.578125
15.0 598910.828125
16.0 603637.9765625
17.0 609290.421875
18.0 614639.578125
19.0 620111.859375
20.0 622706.3828125
21.0 625393.671875
22.0 630769.2265625
23.0 636087.5234375
24.0 642437.2109375
25.0 648516.34375
26.0 658033.1875
27.0 665716.0703125
28.0 668374.125
29.0 669044.15625
30.0 673358.2265625
31.0 676206.0390625
32.0 672505.0390625
33.0 670545.8828125
34.0 674900.6328125
35.0 675923.296875
36.0 676640.5859375
37.0 677242.2890625
38.0 677773.59375
39.0 685046.546875
40.0 693919.203125
41.0 697720.6640625
42.0 710963.453125
43.0 725891.9453125
44.0 737212.0
45.0 749640.625
46.0 755682.9765625
47.0 753175.796875
48.0 750965.890625
49.0 747609.265625
50.0 742527.4609375
51.0 742118.1640625
52.0 746877.2890625
53.0 752180.7734375
54.0 761104.84375
55.0 766916.2109375
56.0 776261.546875
57.0 791623.40625
58.0 808462.4140625
59.0 822733.515625
60.0 832026.78125
61.0 852553.5
62.0 876833.765625
63.0 899521.125
64.0 895942.140625
65.0 895517.203125
66.0 890920.78125
67.0 880399.5625
68.0 866881.140625
69.0 855763.390625
70.0 841202.0
71.0 832897.4296875
72.0 825174.9609375
73.0 818069.9609375
74.0 813587.75
75.0 804394.6796875
76.0 795763.6875
77.0 781431.578125
78.0 768105.4375
79.0 759595.859375
80.0 745079.875
81.0 726217.5625
82.0 711874.015625
83.0 698417.4765625
84.0 687400.3359375
85.0 679728.796875
86.0 672922.6484375
87.0 672068.0390625
88.0 674455.484375
89.0 676040.5
90.0 675393.7265625
91.0 674257.3125
92.0 672962.328125
93.0 672338.9609375
94.0 670309.796875
95.0 669287.9765625
96.0 671652.0703125
97.0 675684.8046875
98.0 676592.7265625
99.0 674813.1875
100.0 676193.53125
101.0 681533.2421875
102.0 688472.4296875
103.0 693743.1171875
104.0 704101.21875
105.0 709169.421875
106.0 714241.7421875
107.0 717286.7265625
108.0 710779.2890625
109.0 717325.0703125
110.0 723379.1640625
111.0 728273.328125
112.0 736943.8203125
113.0 742658.890625
114.0 749389.703125
115.0 752721.4140625
116.0 760751.15625
117.0 767736.1484375
118.0 773245.6171875
119.0 780885.5625
120.0 787557.0
121.0 794111.6875
122.0 805314.53125
123.0 815407.890625
124.0 824837.7734375
125.0 837182.484375
126.0 850910.921875
127.0 859194.359375
128.0 867093.5
129.0 872669.03125
130.0 887429.6875
131.0 903277.078125
132.0 911976.234375
133.0 923620.078125
134.0 937762.609375
135.0 951551.796875
136.0 965491.0
137.0 979942.796875
138.0 992227.359375
139.0 1009508.796875
140.0 1028693.859375
141.0 1043732.03125
142.0 1057521.640625
143.0 1073025.21875
144.0 1079398.96875
145.0 1085328.015625
146.0 1086831.3125
147.0 1089970.15625
148.0 1086507.390625
149.0 1083226.4375
150.0 1076721.828125
151.0 1076989.140625
152.0 1085563.03125
153.0 1095020.78125
154.0 1096384.0625
155.0 1088334.578125
156.0 1085082.015625
157.0 1080385.28125
158.0 1073399.84375
159.0 1066813.0625
160.0 1064448.953125
161.0 1065697.375
162.0 1070843.015625
163.0 1078157.65625
164.0 1073713.828125
165.0 1070486.125
166.0 1060787.75
167.0 1044634.421875
168.0 1022149.015625
169.0 998210.09375
170.0 978869.6875
171.0 962114.65625
172.0 944645.96875
173.0 931279.765625
174.0 915919.828125
175.0 909189.53125
176.0 899753.609375
177.0 896384.203125
178.0 890499.453125
179.0 879728.875
180.0 874316.328125
181.0 869106.1875
182.0 858448.46875
183.0 839489.625
184.0 819745.0703125
185.0 798595.453125
186.0 779850.5390625
187.0 763037.2109375
188.0 755200.09375
189.0 756390.7265625
190.0 767989.25
191.0 786071.1015625
192.0 802625.2734375
193.0 822604.171875
194.0 842110.421875
195.0 850009.921875
196.0 854102.9375
197.0 851952.59375
198.0 842977.859375
199.0 835660.9375
200.0 833836.015625
201.0 841075.5
202.0 853011.65625
203.0 864959.1875
204.0 881054.765625
205.0 901504.53125
206.0 922936.53125
207.0 938380.15625
208.0 959020.609375
209.0 976580.125
210.0 991304.15625
211.0 1006640.75
212.0 1022778.734375
213.0 1036395.578125
214.0 1052346.9375
215.0 1062440.703125
216.0 1070323.5
217.0 1076356.78125
218.0 1079196.671875
219.0 1080996.359375
220.0 1085549.09375
221.0 1087619.5625
222.0 1095261.328125
223.0 1099862.09375
224.0 1106452.859375
225.0 1097433.546875
226.0 1082140.921875
227.0 1063109.765625
228.0 1033273.5625
229.0 1007043.875
230.0 978044.796875
231.0 953427.734375
232.0 938234.53125
233.0 931418.1875
234.0 921453.78125
235.0 913434.625
236.0 916976.15625
237.0 917704.3125
238.0 905175.40625
239.0 884781.296875
240.0 859506.984375
241.0 834379.1875
242.0 803120.2421875
243.0 769399.03125
244.0 741439.8984375
245.0 716532.2421875
246.0 700481.453125
247.0 688801.2890625
248.0 675540.109375
249.0 662738.46875
250.0 653075.578125
251.0 646850.5078125
252.0 639649.453125
253.0 635581.8203125
254.0 634668.4609375
255.0 629676.875
256.0 624791.0703125
257.0 625007.5078125
258.0 627334.109375
259.0 627988.6796875
260.0 630444.0625
261.0 634967.4140625
262.0 647228.046875
263.0 655121.1484375
264.0 662987.078125
265.0 672146.625
266.0 680063.1953125
267.0 687625.4765625
268.0 695129.4453125
269.0 697012.609375
270.0 695563.0234375
271.0 697470.7578125
272.0 691769.671875
273.0 688474.578125
274.0 685806.8359375
275.0 680771.8125
276.0 675639.6171875
277.0 671785.9453125
278.0 668534.0625
279.0 666992.203125
280.0 662122.140625
281.0 661979.609375
282.0 664717.0390625
283.0 663326.953125
284.0 654230.1171875
285.0 639337.6796875
286.0 622710.59375
287.0 602053.7265625
288.0 578759.828125
289.0 557011.25
290.0 537463.734375
291.0 527449.296875
292.0 521000.875
293.0 505772.7578125
294.0 488383.1953125
295.0 474062.375
296.0 457450.3125
297.0 438515.2890625
298.0 418116.3515625
299.0 406366.2109375
300.0 399026.8671875
301.0 390864.70703125
302.0 380088.54296875
303.0 369327.79296875
304.0 356394.3515625
305.0 339733.203125
306.0 323554.015625
307.0 308050.02734375
308.0 291747.6484375
309.0 281413.9140625
310.0 272058.01953125
311.0 262969.88671875
312.0 252663.80859375
313.0 243550.60546875
314.0 234981.63671875
315.0 226583.94921875
316.0 220183.6484375
317.0 207856.96875
318.0 199284.400390625
319.0 193858.080078125
320.0 187867.095703125
321.0 182253.603515625
322.0 177773.615234375
323.0 172010.97265625
324.0 168182.1875
325.0 165124.6328125
326.0 161558.6328125
327.0 159656.515625
328.0 157704.24609375
329.0 155763.068359375
330.0 151860.685546875
331.0 149133.7890625
332.0 148156.486328125
333.0 145689.705078125
334.0 143962.779296875
335.0 142051.84765625
336.0 140648.263671875
337.0 139419.337890625
338.0 139379.146484375
339.0 139287.556640625
340.0 138332.498046875
341.0 137161.19921875
342.0 136879.873046875
343.0 136046.54296875
344.0 135797.841796875
345.0 135649.544921875
346.0 134563.90625
347.0 133753.005859375
348.0 133539.783203125
349.0 133916.720703125
350.0 132890.30078125
351.0 131533.58984375
352.0 130555.236328125
353.0 129362.6953125
354.0 129062.615234375
355.0 129130.255859375
356.0 129778.5703125
357.0 130779.044921875
358.0 131252.794921875
359.0 131318.96484375
360.0 129665.443359375
361.0 128568.931640625
362.0 126854.994140625
363.0 125765.68359375
364.0 124011.8359375
365.0 124194.453125
366.0 123246.828125
367.0 122183.857421875
368.0 120319.791015625
369.0 118478.607421875
370.0 118298.392578125
371.0 115892.7109375
372.0 114924.740234375
373.0 115221.90625
374.0 115012.30078125
375.0 114721.94921875
376.0 114899.087890625
377.0 112947.341796875
378.0 111408.880859375
379.0 108945.033203125
380.0 108363.728515625
381.0 106879.685546875
382.0 106268.900390625
383.0 105850.46484375
384.0 104833.970703125
385.0 104823.583984375
386.0 104772.123046875
387.0 104421.2734375
388.0 103685.82421875
389.0 103106.8173828125
390.0 102770.23828125
391.0 102511.609375
392.0 102146.48046875
393.0 99777.9404296875
394.0 97387.984375
395.0 95776.0458984375
396.0 97506.7021484375
397.0 96745.138671875
398.0 96006.9052734375
399.0 96666.427734375
400.0 96039.1982421875
401.0 96581.7900390625
402.0 96079.2958984375
403.0 93544.365234375
404.0 91663.9228515625
405.0 90801.4580078125
406.0 88553.81640625
407.0 86396.1904296875
408.0 84839.34765625
409.0 83464.6884765625
410.0 82821.0166015625
411.0 83206.376953125
412.0 83042.037109375
413.0 82148.0849609375
414.0 82562.9912109375
415.0 80215.625
416.0 78503.244140625
417.0 77126.63671875
418.0 76142.8095703125
419.0 75508.42578125
420.0 74951.916015625
421.0 75275.4150390625
422.0 75987.8955078125
423.0 75565.900390625
424.0 74092.599609375
425.0 74117.9501953125
426.0 73264.0537109375
427.0 72224.1826171875
428.0 71693.380859375
429.0 70050.916015625
430.0 68789.7138671875
431.0 68293.7646484375
432.0 68988.990234375
433.0 69839.5419921875
434.0 70243.796875
435.0 70904.275390625
436.0 71451.64453125
437.0 72687.3671875
438.0 73371.076171875
439.0 72083.173828125
440.0 72026.7099609375
441.0 72586.896484375
442.0 73430.9873046875
443.0 74741.8056640625
444.0 75828.7060546875
445.0 78630.6875
446.0 80141.2919921875
447.0 80836.5908203125
448.0 78641.291015625
449.0 75811.15625
450.0 74913.380859375
451.0 72241.7021484375
452.0 69853.6533203125
453.0 68073.9462890625
454.0 69235.927734375
455.0 69056.2333984375
456.0 68782.9365234375
457.0 68648.1484375
458.0 67802.0458984375
459.0 67162.83203125
460.0 66313.2001953125
461.0 65428.4453125
462.0 64729.44921875
463.0 65550.546875
464.0 65632.078125
465.0 64948.197265625
466.0 65501.7490234375
467.0 65838.2666015625
468.0 65682.2998046875
469.0 65585.9130859375
470.0 62766.271484375
471.0 68913.0341796875
472.0 72293.2158203125
473.0 78426.8935546875
474.0 82123.201171875
475.0 83778.3466796875
476.0 84238.080078125
477.0 84452.0712890625
478.0 80891.302734375
479.0 78371.98828125
480.0 74465.5888671875
481.0 70284.2685546875
482.0 68508.140625
483.0 67614.1298828125
484.0 66841.6123046875
485.0 67289.9248046875
486.0 67723.9951171875
487.0 67502.875
488.0 67377.4990234375
489.0 67543.1376953125
490.0 67135.705078125
491.0 67450.1484375
492.0 67774.4140625
493.0 68644.34765625
494.0 68890.044921875
495.0 68433.015625
496.0 68191.0791015625
497.0 67466.1728515625
498.0 68465.63671875
499.0 68397.375
500.0 67897.072265625
501.0 68989.466796875
502.0 68990.783203125
503.0 68856.615234375
504.0 69040.24609375
505.0 70059.0126953125
506.0 69304.9150390625
507.0 68446.0791015625
508.0 68675.3203125
509.0 68341.9013671875
510.0 69277.6064453125
511.0 70016.810546875
512.0 69202.896484375
513.0 69275.62890625
514.0 70056.380859375
515.0 70092.6171875
516.0 69810.4033203125
517.0 70082.66796875
518.0 70489.83203125
519.0 69851.0546875
520.0 70714.1552734375
521.0 71295.5283203125
522.0 71421.4990234375
523.0 71834.650390625
524.0 72490.111328125
525.0 73477.2578125
526.0 73728.8828125
527.0 73368.4462890625
528.0 73102.697265625
529.0 73527.041015625
530.0 73254.7900390625
531.0 73517.5615234375
532.0 73890.4755859375
533.0 74269.958984375
534.0 74104.6328125
535.0 73293.5419921875
536.0 72420.076171875
537.0 71947.6630859375
538.0 71680.3837890625
539.0 71949.4892578125
540.0 71179.427734375
541.0 71080.19921875
542.0 71158.2421875
543.0 70561.232421875
544.0 70492.4228515625
545.0 71399.119140625
546.0 70098.544921875
547.0 70518.0048828125
548.0 71064.0322265625
549.0 71390.6962890625
550.0 72721.7763671875
551.0 73566.654296875
552.0 73811.7421875
553.0 75078.984375
554.0 75079.154296875
555.0 74501.8828125
556.0 74861.33984375
557.0 74902.904296875
558.0 75701.6826171875
559.0 75603.896484375
560.0 75748.119140625
561.0 76592.7626953125
562.0 76318.7763671875
563.0 76230.544921875
564.0 76646.78125
565.0 75841.455078125
566.0 75989.3017578125
567.0 77912.0478515625
568.0 79317.2822265625
569.0 80894.421875
570.0 80180.0693359375
571.0 80148.6162109375
572.0 78926.4091796875
573.0 78323.90234375
574.0 77448.46875
575.0 77107.6650390625
576.0 76639.8603515625
577.0 76585.177734375
578.0 77309.328125
579.0 76904.3203125
580.0 75856.611328125
581.0 74384.404296875
582.0 72876.0771484375
583.0 71634.82421875
584.0 72164.009765625
585.0 72632.130859375
586.0 73394.63671875
587.0 74135.5244140625
588.0 74414.04296875
589.0 74336.4140625
590.0 73108.6767578125
591.0 72355.7587890625
592.0 72177.3671875
593.0 72797.9814453125
594.0 73694.59375
595.0 73085.0283203125
596.0 73272.037109375
597.0 73957.3095703125
598.0 73648.146484375
599.0 72920.568359375
600.0 72580.34765625
601.0 72140.16015625
602.0 71058.3134765625
603.0 69701.1845703125
604.0 69150.681640625
605.0 68517.4765625
606.0 67703.6669921875
607.0 68197.4404296875
608.0 68266.2119140625
609.0 67486.419921875
610.0 66438.26171875
611.0 67163.0830078125
612.0 66831.3046875
613.0 66347.6875
614.0 66217.4931640625
615.0 67183.2099609375
616.0 66124.125
617.0 65827.6474609375
618.0 66196.5771484375
619.0 66066.484375
620.0 64875.701171875
621.0 64632.837890625
622.0 64783.7646484375
623.0 63640.8603515625
624.0 63458.9697265625
625.0 62645.2138671875
626.0 63236.1923828125
627.0 63002.2529296875
628.0 63255.96484375
629.0 62889.509765625
630.0 63338.0087890625
631.0 64461.498046875
632.0 64213.6025390625
633.0 64721.17578125
634.0 65485.9873046875
635.0 64946.4375
636.0 65230.5576171875
637.0 66280.6220703125
638.0 65256.6337890625
639.0 65025.9306640625
640.0 65374.6533203125
641.0 64157.5205078125
642.0 64252.568359375
643.0 64825.5966796875
644.0 63892.6337890625
645.0 63608.904296875
646.0 63213.8359375
647.0 63032.1201171875
648.0 62839.65234375
649.0 63343.5634765625
650.0 63015.380859375
651.0 63394.927734375
652.0 62957.650390625
653.0 62680.537109375
654.0 61524.4345703125
655.0 61763.1162109375
656.0 61548.78125
657.0 61683.505859375
658.0 61728.45703125
659.0 63811.2314453125
660.0 66697.9833984375
661.0 68539.2919921875
662.0 69202.689453125
663.0 68543.6328125
664.0 68010.1650390625
665.0 66864.927734375
666.0 63971.3896484375
667.0 62054.6201171875
668.0 61199.978515625
669.0 60482.111328125
670.0 60406.404296875
671.0 59750.443359375
672.0 59485.51953125
673.0 59877.9296875
674.0 60229.1689453125
675.0 60103.0029296875
676.0 59808.9697265625
677.0 59231.3134765625
678.0 59660.09765625
679.0 59903.7900390625
680.0 59100.650390625
681.0 58630.9794921875
682.0 57939.6953125
683.0 58998.4111328125
684.0 59103.091796875
685.0 58102.57421875
686.0 58626.8505859375
687.0 57661.7216796875
688.0 56732.6904296875
689.0 56547.2939453125
690.0 57102.5361328125
691.0 56535.2236328125
692.0 56318.5771484375
693.0 56359.89453125
694.0 57742.533203125
695.0 58044.5859375
696.0 58540.3017578125
697.0 59831.873046875
698.0 61242.65625
699.0 62783.421875
700.0 63663.521484375
701.0 62451.6123046875
702.0 62522.9189453125
703.0 62792.3984375
704.0 63156.025390625
705.0 63644.142578125
706.0 61171.546875
707.0 61211.6513671875
708.0 60312.9794921875
709.0 59220.908203125
710.0 58683.716796875
711.0 58801.0859375
712.0 59710.4189453125
713.0 61653.5458984375
714.0 63529.1064453125
715.0 64568.232421875
716.0 65718.716796875
717.0 68335.53125
718.0 67947.7314453125
719.0 66369.234375
720.0 65740.6240234375
721.0 65718.1005859375
722.0 66686.01953125
723.0 67470.080078125
724.0 67099.181640625
725.0 66535.4140625
726.0 65635.1884765625
727.0 64723.8544921875
728.0 63923.5517578125
729.0 62057.7294921875
730.0 61119.65234375
731.0 61094.498046875
732.0 61320.4072265625
733.0 61033.3701171875
734.0 60443.7685546875
735.0 60298.447265625
736.0 60008.8525390625
737.0 59843.5400390625
738.0 59185.09375
739.0 59367.4638671875
740.0 59582.5576171875
741.0 60592.103515625
742.0 62753.8955078125
743.0 64775.171875
744.0 64883.708984375
745.0 65363.2431640625
746.0 66005.5244140625
747.0 67176.4443359375
748.0 67115.5458984375
749.0 66367.9130859375
750.0 66706.88671875
751.0 67700.0537109375
752.0 68413.7373046875
753.0 70530.78125
754.0 72038.6083984375
755.0 72072.0068359375
756.0 73916.67578125
757.0 74210.3291015625
758.0 73404.8759765625
759.0 74595.5732421875
760.0 76951.21484375
761.0 83587.5537109375
762.0 89695.9208984375
763.0 92961.6611328125
764.0 95277.27734375
765.0 95398.4931640625
766.0 94453.8984375
767.0 93462.1875
768.0 92961.00390625
769.0 89790.310546875
770.0 88438.845703125
771.0 87069.1943359375
772.0 86651.3720703125
773.0 84502.0556640625
774.0 78947.837890625
775.0 72749.9248046875
776.0 67957.775390625
777.0 68665.5869140625
778.0 68705.6552734375
779.0 70432.423828125
780.0 71827.3134765625
781.0 72501.767578125
782.0 74060.146484375
783.0 75611.599609375
784.0 76259.57421875
785.0 79510.4013671875
786.0 80081.6083984375
787.0 83893.69921875
788.0 91779.0458984375
789.0 100025.396484375
790.0 110738.884765625
791.0 119803.625
792.0 125979.75390625
793.0 135869.06640625
794.0 149573.658203125
795.0 155841.533203125
796.0 159461.9140625
797.0 159139.61328125
798.0 162093.26171875
799.0 168967.849609375
800.0 169273.685546875
801.0 162151.48046875
802.0 151355.294921875
803.0 143272.486328125
804.0 134765.810546875
805.0 123633.587890625
806.0 113996.837890625
807.0 103479.2919921875
808.0 99867.2314453125
809.0 107195.58203125
810.0 114441.6728515625
811.0 116590.01171875
812.0 117373.455078125
813.0 119354.0078125
814.0 120040.09765625
815.0 119453.80859375
816.0 115992.623046875
817.0 110673.396484375
818.0 107085.41015625
819.0 105396.958984375
820.0 103878.9765625
821.0 104575.822265625
822.0 102200.4765625
823.0 100745.658203125
824.0 101967.173828125
825.0 97610.8115234375
826.0 95117.595703125
827.0 90600.515625
828.0 84789.091796875
829.0 84404.7392578125
830.0 85158.859375
831.0 84200.423828125
832.0 83595.703125
833.0 81693.205078125
834.0 81568.197265625
835.0 78906.6123046875
836.0 76342.828125
837.0 77053.0048828125
838.0 77348.390625
839.0 77521.673828125
840.0 77467.9970703125
841.0 77493.78125
842.0 75447.474609375
843.0 75754.8505859375
844.0 76584.6591796875
845.0 75349.8916015625
846.0 76557.865234375
847.0 77539.8369140625
848.0 77387.4306640625
849.0 78007.7548828125
850.0 79625.9951171875
851.0 79804.6328125
852.0 81320.4091796875
853.0 82942.2333984375
854.0 83494.46484375
855.0 86132.1826171875
856.0 86723.8779296875
857.0 86796.33203125
858.0 86238.7353515625
859.0 84809.69140625
860.0 85793.4423828125
861.0 85702.283203125
862.0 85990.080078125
863.0 83808.6123046875
864.0 82572.6669921875
865.0 82474.6669921875
866.0 81245.5244140625
867.0 79201.806640625
868.0 79097.814453125
869.0 79792.001953125
870.0 80896.2607421875
871.0 82176.857421875
872.0 82104.0126953125
873.0 81061.5810546875
874.0 81859.4833984375
875.0 83259.779296875
876.0 82452.9951171875
877.0 82624.3681640625
878.0 85750.048828125
879.0 85292.095703125
880.0 85588.826171875
881.0 84170.4736328125
882.0 84759.8193359375
883.0 85490.3193359375
884.0 84818.791015625
885.0 83622.6767578125
886.0 83488.396484375
887.0 83284.3291015625
888.0 84021.76171875
889.0 84438.2919921875
890.0 85461.2978515625
891.0 85580.908203125
892.0 85409.8896484375
893.0 85393.8447265625
894.0 86930.7685546875
895.0 87115.08203125
896.0 87798.240234375
